Time (s),x (km),y (km),z (km),vx (km/s),vy (km/s),vz (km/s)
0.0,7000.0,1e-06,-0.001608,2e-06,1.310359,7.431412
10.0,6999.593288793896,13.103337205152547,74.31107275227195,-0.08134345346372797,1.3102828622889844,7.430980220520262
20.0,6998.373162440675,26.205150685695187,148.6151178953478,-0.16267945398839376,1.3100544580273497,7.429684894886894
30.0,6996.339762730952,39.30391889409233,222.9018926367245,-0.24399654960325523,1.3096738137581099,7.427526173630566
40.0,6993.493325964984,52.39811963670023,297.162764190897,-0.32528529053454064,1.3091409737159379,7.4245043076162895
50.0,6989.834182925204,65.4862312506596,371.3891027825652,-0.4065362303035984,1.3084559998220255,7.420619648014263
60.0,6985.362758837779,78.56673278072658,445.572282649492,-0.4877399268246641,1.3076189716768865,7.415872646259067
70.0,6980.079573323201,91.63810415602133,519.7036830448942,-0.5688869435021168,1.3066299865511073,7.410263853997196
80.0,6973.985240335894,104.698826366674,593.7746892392507,-0.6499678503270971,1.305489159374042,7.403793923022955
90.0,6967.080468092874,117.74738164034731,667.776693521412,-0.7309732249733606,1.304196622720457,7.396463605202713
100.0,6959.366058991442,130.7822536186154,741.7010961988931,-0.8118936538922374,1.3027525267951237,7.3882737523875255
110.0,6950.842909515939,143.80192753317826,815.5393065972355,-0.8927197334065726,1.3011570394153638,7.379225316314145
120.0,6941.512010133566,156.80489038189145,889.2827440583208,-0.9734420708035183,1.299410345991547,7.369319348494415
130.0,6931.374445179284,169.78963110459048,962.9228389375199,-1.0540512854260533,1.297512649505544,7.358557000093077
140.0,6920.4313927298,182.75464075868973,1036.4510335995635,-1.1345380097630995,1.2954641704871392,7.34693952179399
150.0,6908.6841244666675,195.69841269453497,1109.858783413015,-1.2148928905381131,1.2932651469884011,7.334468263654792
160.0,6896.134005528502,208.61944273048968,1183.1375577432348,-1.2951065897960188,1.2909158345560194,7.321144674950007
170.0,6882.782494352341,221.51622932773452,1256.2788409437157,-1.3751697859883663,1.288416506201608,7.3069703040026255
180.0,6868.631142504158,234.3872737647595,1329.274133345678,-1.4550731750565782,1.2857674523699776,7.291946798004173
190.0,6853.681594498557,247.23108031152893,1402.1149522458068,-1.5348074715131659,1.2829689809053835,7.276075902823296
200.0,6837.935587607666,260.04615640329865,1474.7928328920189,-1.6143634095207873,1.2800214170157513,7.259359462802864
210.0,6821.3949516592465,272.83101281406556,1547.2993294671428,-1.6937317439690214,1.2769251032348843,7.241799420545648
220.0,6804.061608824053,285.58416382962884,1619.6260160703978,-1.7729032515487344,1.2736803993826578,7.223397816688566
230.0,6785.937573392456,298.3041274202435,1691.7644876965605,-1.8518687318239109,1.2702876825232041,7.204156789665545
240.0,6767.0249515403675,310.98942541284543,1763.7063612127006,-1.9306190083008272,1.2667473469210948,7.184078575459009
250.0,6747.325941084479,323.63858366282824,1835.4432763323766,-2.0091449294944455,1.2630598039955225,7.16316550734004
260.0,6726.842831226856,336.2501322253523,1906.966896587176,-2.0874373699918953,1.2592254822724909,7.14142001559723
270.0,6705.578002288913,348.82260552616526,1978.268910295488,-2.165487231512933,1.2552448273350143,7.118844627254252
280.0,6683.533925434797,361.3545425319153,2049.341031528395,-2.2432854439672414,1.251118301771339,7.095441965776203
290.0,6660.713162384215,373.8444869199357,2120.175001072571,-2.3208229665084574,1.2468463851211835,7.071214750764726
300.0,6637.1183651147385,386.29098724748326,2190.7625873900784,-2.398090788584799,1.2424295738200126,7.0461657976419705
310.0,6612.75227555362,398.6925971204083,2261.0955875749432,-2.475079930986174,1.2378683811413476,7.020298017323409
320.0,6587.617725259156,411.0478753612391,2331.16582830641,-2.5517814468876434,1.2331633371371173,6.9936144158795654
330.0,6561.717635091631,423.3553861766594,2400.965166798751,-2.6281864228891254,1.2283149885760625,6.966118094186676
340.0,6535.0550148738885,435.6136993243605,2470.485491747533,-2.7042859800512105,1.2233238988801942,6.937812247566343
350.0,6507.632963041564,447.8213902792479,2539.7187242722243,-2.7800712749269754,1.2181906480593214,6.9087001654142
360.0,6479.4546662830135,459.97704039898446,2608.6568188550295,-2.855533500589671,1.2129158326436456,6.878785230817665
370.0,6450.523399168996,472.0792370888488,2677.291764275854,-2.930663887656166,1.20750006561444,6.8480709201627805
380.0,6420.842523772132,484.1265739658917,2745.6155845432777,-3.0054537053060293,1.2019439763328146,6.816560802730232
390.0,6390.415489276209,496.1176510223701,2813.6203398214366,-3.0798942622961283,1.1962482104665793,6.784258540280559
400.0,6359.245831575344,508.051074788441,2881.2981273527025,-3.153976907970629,1.1904134299152094,6.75116788662863
410.0,6327.3371728630855,519.9254584940944,2948.641082376055,-3.2276930332662817,1.1844403127329288,6.717292687207408
420.0,6294.693221211485,531.7394222303091,3015.641379041036,-3.3010340717128708,1.1783295530499118,6.682636878621075
430.0,6261.317770140177,543.4915931094098,3082.291231317184,-3.3739915004287133,1.1720818609916193,6.6472044881875645
440.0,6227.214698175544,555.1806054246091,3148.582893898839,-3.446556841111097,1.1656979625962764,6.610999633470547
450.0,6192.387968399989,566.8051008087153,3214.508663105217,-3.5187216610215337,1.1591785997304982,6.574026521800929
460.0,6156.841627991399,578.363728391986,3280.060877775647,-3.5904775739657184,1.152524530003079,6.536289449787925
470.0,6120.579807752816,589.8551449591116,3345.231920159866,-3.661816241268081,1.1457365266769508,6.497792802819747
480.0,6083.606721632406,601.278015105309,3410.0142168032676,-3.7327293727408133,1.1388153785793231,6.458541054553986
490.0,6045.926666233758,612.6310113915071,3474.4002394270074,-3.8032087276472653,1.1317618900100128,6.418538766397722
500.0,6007.544020316576,623.9128144986076,3538.3825058028538,-3.87324611565959,1.1245768806479781,6.377790586977457
510.0,5968.4632442878365,635.1221133808012,3601.9535806226922,-3.942833397810534,1.1172611854560637,6.336301251598891
520.0,5928.688879683435,646.2576054179231,3665.1060763625705,-4.011962487439257,1.10981565458397,6.294075581696643
530.0,5888.225548640429,657.3179965668285,3727.8326541411984,-4.080625351131075,1.1022411532694583,6.251118484273949
540.0,5847.077953359899,668.3020015117723,3790.126024572788,-4.148814009651012,1.0945385617378012,6.2074349513324245
550.0,5805.250875560511,679.2083438137748,3851.9789486141476,-4.216520538871062,1.0867087750994933,6.163030059291947
560.0,5762.749175922836,690.0357560589541,3913.3842384059203,-4.283737070691039,1.0787527032462298,6.117908968400732
570.0,5719.577793524495,700.7829800058115,3974.334758107879,-4.350455793952921,1.07067127074517,6.072076922135656
580.0,5675.741745266195,711.4487667314503,4034.8234247281753,-4.41666895534858,1.062465416731492,6.025539246592922
590.0,5631.246125288713,722.0318767767116,4094.843208946442,-4.48236886032078,1.0541360947992586,5.978301349869117
600.0,5586.096104380923,732.5310802902104,4154.387135930666,-4.547547873957353,1.0456842728905993,5.930368721432736
610.0,5540.296929378889,742.9451571712557,4213.4482861477245,-4.612198421878448,1.0371109331832262,5.881746931486262
620.0,5493.853922556145,753.2728972116362,4272.019796167498,-4.676312991116735,1.028417071976298,5.832441630318848
630.0,5446.772481005193,763.513100236258,4330.094859460456,-4.73988413099048,1.0196036995746374,5.78245854764971
640.0,5399.058076010314,773.6645762426151,4387.666727188644,-4.802904453969385,1.0106718401713275,5.73180349196227
650.0,5350.716252411756,783.7261455390784,4444.728708989951,-4.865366636533078,1.0016225317286889,5.680482349829168
660.0,5301.75262796137,793.6966388819862,4501.274173755593,-4.927263420022169,0.9924568258576597,5.6285010852281765
670.0,5252.172892669781,803.5748976115209,4557.296550400708,-4.98858761148178,0.9831757876955889,5.5758657388491395
680.0,5201.982808145149,813.3597737863553,4612.789328627966,-5.049332084497419,0.9737804957824563,5.522582427391982
690.0,5151.188206923627,823.0501303170533,4667.746059684133,-5.1094897800231385,0.9642720419355378,5.4686573428558996
700.0,5099.794991791565,832.6448410982103,4722.1603571094665,-5.169053707201854,0.9546515311225249,5.414096751819783
710.0,5047.809135099547,842.1427911393163,4776.025897479883,-5.228016944177748,0.9449200813331174,5.35890699471399
720.0,4995.236678068357,851.5428766943274,4829.336421141789,-5.286372638900645,0.9350788234491034,5.303094485083525
730.0,4942.083730086928,860.8440053899313,4882.085732939519,-5.344114009922285,0.9251289011129398,5.246665708842729
740.0,4888.356468002384,870.0450963524905,4934.267702935254,-5.401234347184381,0.9150714705948502,5.189627223521552
750.0,4834.061135402224,879.1450803336489,4985.876267121384,-5.457727012798395,0.9049077006584566,5.131985657503515
760.0,4779.20404188877,888.1428998345888,5036.905428125197,-5.5135854418169075,0.8946387724249576,5.073747709255421
770.0,4723.7915623459285,897.0375092289206,5087.349255905822,-5.568803142996532,0.884265879235871,5.014920146548941
780.0,4667.830136198373,905.8278748841946,5137.201888443357,-5.623373699552248,0.8737902265143576,4.955509805674132
790.0,4611.326266663227,914.5129752820176,5186.457532420088,-5.677290769903087,0.8632130316251385,4.895523590644993
800.0,4554.286519994326,923.0918011367627,5235.110463893716,-5.730548088409085,0.8525355237330278,4.834968472397167
810.0,4496.7175247191635,931.563355512857,5283.15502896254,-5.783139466099397,0.8417589436600905,4.77385148797784
820.0,4438.625970868596,939.926653940634,5330.585644422481,-5.835058791391512,0.8308845437414494,4.7121797397279845
830.0,4380.0186091994,948.1807245307382,5377.396798415902,-5.886300030801477,0.8199135876797511,4.6499603944569925
840.0,4320.902250409775,956.3246080870666,5423.583051072138,-5.936857229645031,0.8088473503983127,4.587200682609834
850.0,4261.283764347873,964.3573582182363,5469.139035139652,-5.986724512729596,0.7976871178929635,4.523907897426808
860.0,4201.1700792134725,972.2780414475624,5514.059456609758,-6.035896085037026,0.7864341870826015,4.460089394096001
870.0,4140.568180752844,980.0857373215375,5558.339095331831,-6.084366232397034,0.7750898656584786,4.395752588898555
880.0,4079.4851114469525,987.7795385167958,5601.9728056199365,-6.132129322151231,0.7636554719322354,4.3309049583468155
890.0,4017.9279696930594,995.3585509455518,5644.9555168507995,-6.1791798038076875,0.7521323346827011,4.2655540383155035
900.0,3955.9039089798193,1002.821893859501,5687.28223405306,-6.225512209685952,0.740521793001478,4.199707423165972
910.0,3893.4201370559813,1010.1686999521717,5728.948038487731,-6.271121155552437,0.7288251961373258,4.133372764863672
920.0,3830.4839150927874,1017.398115459712,5769.948088219794,-6.316001341246116,0.7170439033393672,4.066557772088929
930.0,3767.102556840154,1024.5093002601059,5810.277618680884,-6.360147551294448,0.7051792836991307,3.99927020934112
940.0,3703.283427776754,1031.5014279708018,5849.931943222964,-6.403554655519459,0.6932327159914502,3.9315178960363686
950.0,3639.033944254076,1038.3736860447466,5888.90645366296,-6.446217609633912,0.6812055885142375,3.86330870559886
960.0,3574.361572634582,1045.125275864809,5927.1966208182685,-6.488131455827497,0.669099298927151,3.794650564545876
970.0,3509.273828424048,1051.7554128365873,5964.797995033092,-6.529291323342971,0.6569152540891742,3.725551451566661
980.0,3443.7782753981946,1058.2633264795852,6001.706206695521,-6.56969242904218,0.6446548698951257,3.656019396595227
990.0,3377.8825247237073,1064.6482605167485,6037.916966745328,-6.609330077961902,0.6323195711111201,3.5860624798772034
1000.0,3311.5942340737515,1070.9094729623519,6073.426067172387,-6.648199663859439,0.6199107912089968,3.515688831030837
1010.0,3244.9211067380834,1077.0462362082224,6108.229381505683,-6.686296669747904,0.6074299721997375,3.4449066281022587
1020.0,3177.870890727857,1083.0578371082956,6142.322865292847,-6.723616668421132,0.5948785644658917,3.373724096615121
1030.0,3110.4513778752357,1088.9435770614882,6175.702556570151,-6.760155322968155,0.5822580265930295,3.3021495086147152
1040.0,3042.670402927913,1094.7027720928818,6208.364576322926,-6.795908387277195,0.56956982520024,3.2301911817066875
1050.0,2974.5358426386438,1100.3347529332068,6240.3051289363375,-6.830871706529093,0.5568154347696977,3.1578574780904574
1060.0,2906.0556148498954,1105.8388650966167,6271.520502636464,-6.865041217680132,0.5439963374753137,3.0851568035874544
1070.0,2837.237677573722,1111.2144689567467,6302.007069921641,-6.898412949934201,0.5311140230104942,3.0120976066642857
1080.0,2768.0900280669753,1116.4609398210412,6331.761287984012,-6.93098302520423,0.5181699884150245,2.938688377450949
1090.0,2698.6207019019494,1121.5776680033507,6360.779699121221,-6.962747658562863,0.5051657379010995,2.8649376467542034
1100.0,2628.837772032577,1126.5640588947813,6389.058931138239,-6.993703158682289,0.4921027826785211,2.790853985066211
1110.0,2558.7493478562783,1131.4195330327943,6416.595697739237,-7.023845928263211,0.47898264077908126,2.71644600156857
1120.0,2488.3635742715774,1136.143526168543,6443.386798909482,-7.0531724644528815,0.46580683688015384,2.641722343131851
1130.0,2417.688630731594,1140.735489332446,6469.429121287208,-7.081679359252158,0.45257690212751317,2.566691693310753
1140.0,2346.7327302935146,1145.1948888979791,6494.719638525412,-7.109363299911548,0.4392943739574008,2.4913627713349933
1150.0,2275.504118664165,1149.5212066436898,6519.255411643542,-7.1362210693161705,0.4259607959178622,2.41574433109606
1160.0,2204.011073241784,1153.713939813417,6543.033589369037,-7.162249546359616,0.4125777174893722,2.3398451601299275
1170.0,2132.261902154115,1157.7726011747172,6566.051408468661,-7.187445706306641,0.3991466939047719,2.263674078595868
1180.0,2060.264943292931,1161.6967190754845,6588.306194069618,-7.211806621144668,0.3856692859685363,2.1872399382514693
1190.0,1988.0285633450937,1165.4858374987596,6609.795359970397,-7.235329459924047,0.37214705987539504,2.1105516214239826
1200.0,1915.5611568202712,1169.1395161157245,6630.516408941308,-7.258011489087029,0.35858158702832676,2.0336180399781134
1210.0,1842.8711450754215,1172.6573303368714,6650.46693301468,-7.279850072785432,0.3449744438559477,1.9564481342803888
1220.0,1769.9669753361557,1176.0388713613431,6669.644613764689,-7.300842673186945,0.33132721162931694,1.8790508721602022
1230.0,1696.8571197150943,1179.2837462244408,6688.047222576781,-7.320986850770046,0.3176414762781784,1.8014352478676736
1240.0,1623.5500742273343,1182.3915778432881,6705.67262090665,-7.340280264607491,0.3039188282066618,1.723610281028438
1250.0,1550.0543578031345,1185.3620050606526,6722.518760528759,-7.358720672638354,0.2901608621084633,1.6455850155954834
1260.0,1476.3785112979415,1188.194682686914,6738.583683774358,-7.376305931928563,0.2763691767815284,1.567368518798164
1270.0,1402.5310964998657,1190.8892815401794,6753.865523758987,-7.393033998919933,0.26254537494225677,1.4889698800885072
1280.0,1328.5206951347257,1193.4454884845359,6768.362504599416,-7.408902929667643,0.24869106303925292,1.4103982100849377
1290.0,1254.3559078687756,1195.86300646644,6782.072941620021,-7.423910880066129,0.23480785106664226,1.3316626395135447
1300.0,1180.0453533092304,1198.1415545492382,6794.9952415485595,-7.438056106063394,0.22089735237697558,1.252772318147008
1310.0,1105.5976670027087,1200.2808679458128,6807.127902701316,-7.451336963863674,0.20696118349374326,1.173736413741315
1320.0,1031.0215004317045,1202.280698049354,6818.469515157617,-7.463751910118458,0.19300096392352079,1.0945641109703859
1330.0,956.3255200092084,1204.1408124622478,6829.018760923667,-7.475299502105839,0.17901831596776777,1.0152646103587324
1340.0,881.5184060715936,1205.8609950230857,6838.774414085718,-7.4859783978981715,0.16501486453430225,0.9358471272122763
1350.0,806.6088518698841,1207.441045831781,6847.735340952525,-7.495787356518005,0.15099223694847197,0.8563208905474492
1360.0,731.6055625595212,1208.8807812728005,6855.900500187093,-7.504725238082302,0.13695206276404467,0.7766951420186985
1370.0,656.5172541887481,1210.1800340365023,6863.268942927684,-7.512791003934896,0.12289597357383976,0.6969791348445261
1380.0,581.3526526857272,1211.338653138578,6869.839812898092,-7.519983716767193,0.10882560282012259,0.6171821327321829
1390.0,506.12049284451047,1212.3565039375978,6875.612346507135,-7.526302540727089,0.09474258560478421,0.5373134088011438
1400.0,430.82951730997866,1213.2334681506582,6880.5858729374,-7.531746741516104,0.08064855849932806,0.45738224450548903
1410.0,355.48847556186877,1213.969443867125,6884.759814223197,-7.53631568647471,0.06654515935468593,0.37739792855531856
1420.0,280.10612289800713,1214.5643455604786,6888.133685317715,-7.540008844655851,0.0524340271108852,0.29736975583732106
1430.0,204.6912194168662,1215.0181040982511,6890.707094149396,-7.542825786886641,0.03831680160658967,0.21730702633462673
1440.0,129.2525289995638,1215.3306667500608,6892.479741667489,-7.544766185818235,0.024195123388535824,0.13721904404606727
1450.0,53.79881829142248,1215.5019971937393,6893.451421876811,-7.545829815963865,0.010070633520886866,0.057115115904969496
1460.0,-21.66114431679198,1215.5320755195519,6893.622021861671,-7.546016553725048,-0.004055026605473327,-0.02299544930239219
1470.0,-97.11858970783513,1215.4208982325124,6892.991521799003,-7.54532637740594,-0.01818021546368428,-0.10310334201855856
1480.0,-172.56474905703274,1215.1684782527873,6891.559994960663,-7.543759367215859,-0.032303291581668746,-0.18319925299673787
1490.0,-247.9908548512957,1214.7748449141964,6889.327607704913,-7.541315705259962,-0.046422613732886135,-0.26327387438262195
1500.0,-323.38814190798234,1214.240043960801,6886.2946194570895,-7.537995675518078,-0.06053654112705746,-0.3433179007960406
1510.0,-398.74784839349013,1213.5641375415903,6882.461382679454,-7.533799663811705,-0.07464343360083955,-0.4233220304123281
1520.0,-474.06121684145785,1212.7472042032582,6877.828342830232,-7.528728157759177,-0.0887416518084264,-0.5032769660432771
1530.0,-549.3194951704608,1211.7893388810749,6872.396038311848,-7.522781746718989,-0.10282955741205546,-0.583173416217553
1540.0,-624.5139377010793,1210.6906528878542,6866.165100408357,-7.515961121721311,-0.11690551327239689,-0.6630020962604444
1550.0,-699.6358061722243,1209.451273901019,6859.136253212078,-7.508267075387682,-0.1309678836388034,-0.7427537293728229
1560.0,-774.6763707566001,1208.0713459477624,6851.310313539457,-7.499700501838896,-0.14501503433939886,-0.8224190477091895
1570.0,-849.6269110751872,1206.551029388312,6842.688190836134,-7.490262396591096,-0.1590453329709832,-0.901988793454678
1580.0,-924.4787172106268,1204.8905008972927,6833.270887071262,-7.479953856440088,-0.17305714908873207,-0.9814537199008943
1590.0,-999.2230907193907,1203.0899534431965,6823.05949662107,-7.4687760793338756,-0.18704885439566868,-1.060804592520465
1600.0,-1073.8513456426163,1201.1495962659571,6812.055206141683,-7.45673036423345,-0.20101882293188614,-1.140032190040169
1610.0,-1148.354809515492,1199.0696548526353,6800.25929443122,-7.4438181109618355,-0.21496543126349815,-1.2191273055125318
1620.0,-1222.7248243750735,1196.8503709112135,6787.673132281188,-7.430040820041416,-0.22888705867129616,-1.2980807473857505
1630.0,-1296.9527477664153,1194.4920023425086,6774.298182317183,-7.415400092519561,-0.24278208733909107,-1.3768833405718341
1640.0,-1371.0299537469007,1191.9948232102004,6760.135998828919,-7.399897629782565,-0.25664890254171757,-1.4555259275128278
1650.0,-1444.9478338886508,1189.3591237089831,6745.188227589601,-7.383535233357933,-0.27048589283267926,-1.533999369245001
1660.0,-1518.6977982789012,1186.5852101308428,6729.456605664681,-7.3663148047050235,-0.28429145023141267,-1.612294546460874
1670.0,-1592.2712765182239,1183.6734048294622,6712.942961209979,-7.348238344994079,-0.29806397041014865,-1.6904023605689618
